Time,Temperature,cop
3600,40.27539943,4.431242262679259
7200,42.38179062,4.6449121809981575
10800,43.74598633,4.793780060210314
14400,44.38837602,4.866990237835182
18000,44.66618177,4.8992978729550005
21600,44.75870152,4.910146220828302
25200,44.73856142,4.907780903217836
28800,44.64092147,4.896343735101041
32400,44.4870087,4.878415325119813
36000,44.29115229,4.855776958792306
39600,44.06364442,4.829724234786453
43200,43.81224985,4.8012368943011206
46800,43.54304516,4.771075857097962
50400,43.26089652,4.739840500703727
54000,42.96974953,4.708005144168092
57600,42.67282091,4.675944500665416
61200,42.37273563,4.643952794141782
64800,42.07163143,4.612258823497059
68400,41.7712417,4.581038154828084
72000,41.47296304,4.550423120545663
75600,41.17791121,4.52051106100648
79200,40.88696778,4.491371121978402
82800,40.60081932,4.4630498527933264
86400,40.33469582,4.003232141093467
100800,39.39397789,3.9284538949770793
115200,38.52724563,3.861835507348735
129600,37.73860026,3.8030310231324944
144000,37.02536754,3.7512750904136913
158400,36.38049743,3.705602322104202
172800,35.86208775,3.415018371658023
187200,35.38891142,3.3868564172707463
201600,34.95048227,3.361151264272197
216000,34.54661726,3.337796610769781
230400,34.17453083,3.316549391707577
244800,33.8307131,3.2971423364636467
259200,33.4678021,3.4300739054191927
273600,33.13261427,3.4097801504370464
288000,32.82536136,3.391374578979362
302400,32.54019981,3.374458374945504
316800,32.27379888,3.358797515295292
331200,32.02399436,3.3442357281202826
345600,31.713643,3.605964836248248
360000,31.42607128,3.586895683546391
374400,31.16455135,3.569716134005076
388800,30.92159699,3.553892724212196
403200,30.69366843,3.539166074076233
417600,30.47892983,3.5253951066829514
432000,30.29047912,3.459044585710216
446400,30.11088876,3.447970206703206
460800,29.93824344,3.4373861294488264
475200,29.77283776,3.427302454163688
489600,29.61434061,3.417691477230813
504000,29.46221029,3.4085136513302965
518400,29.31487606,3.403393652189135
604800,28.5209852,3.412333712688958
691200,28.07848284,3.1756380778734754
777600,27.78817152,3.022918644054501
864000,27.33529836,3.0881703949522383
950400,26.69108995,3.2577949716317294
1036800,26.02732456,3.369172386587032
1123200,25.73133609,3.1471976278724
1209600,25.39052553,3.154733828222528
1296000,24.97409785,3.218158885152423
1382400,24.69866684,3.134372903352713
1468800,24.80042882,2.845929698937306
1555200,24.93785898,2.7192447496980425
1641600,25.0946382,2.615373313088874
1728000,25.12521992,2.600963492944078
1814400,25.0483795,2.611806651272077
1900800,25.00698649,2.5706588723551835
1987200,24.93855829,2.5570145602143626
2073600,24.6836452,2.640409816269748
2160000,23.92429931,2.9989552269110704
2246400,23.27476762,3.107595825179075
2332800,23.05456154,2.9248694452515798
2419200,22.97957695,2.82607669930352
2505600,22.94930964,2.765142552482871
2592000,22.88436296,2.74994214982374
2678400,22.67691514,2.8172143539258903
2764800,22.46066227,2.8401562781446
2851200,22.28719398,2.830230137495507
2937600,22.18164842,2.7922821849879247
3024000,21.97271586,2.849331563114132
3110400,21.78094121,2.858211192363116
3196800,21.51654664,2.923549751861497
3283200,21.10462605,3.0724629768741614
3369600,20.71873505,3.1417065494454364
3456000,21.15457457,3.1696473407184507
3542400,20.85619738,2.9558032624268624
3628800,20.75104696,2.878934782681163
3715200,20.54798771,2.9416515389638915
3801600,20.35942116,2.956596211023357
3888000,20.11472994,3.018433560106894
3974400,19.99368133,3.0792690616463543
4060800,20.54125896,3.1361571991133177
4147200,21.22520038,3.174119686168253
4233600,21.14866002,3.1469373340745475
4320000,20.68068811,3.089704170848936
4406400,21.34973911,3.2085354961773684
4492800,21.60168346,3.204141817759393
4579200,20.76413847,2.8908163082514218
4665600,20.17724509,2.9566646569775465
4752000,19.68393256,3.0379791000426484
4838400,20.30731379,3.155289871049688
4924800,22.24118238,3.202674349603825
5011200,24.34626039,3.2732350493950517
5097600,24.13257076,3.286199908141489
5184000,22.9830517,3.2316914152419267
5270400,24.8800867,3.3819378058503946
5356800,26.59207607,3.4463232405281974
5443200,25.13974993,3.3240178658953514
5529600,25.34964748,3.39933154061613
5616000,27.07248749,3.537895431902066
5702400,26.79083281,3.423323019415992
5788800,26.90599317,3.448880650908954
5875200,25.92283599,3.425047594214524
5961600,23.33665186,3.038919972053265
6048000,21.77411108,3.0739138758868743
6134400,20.78140353,3.067133382087879
6220800,20.1705787,3.0134504511145
6307200,21.14777881,3.22546051156149
6393600,23.12220665,3.2709002061540087
6480000,24.09024369,3.2998858172138075
6566400,21.99206444,3.047536780669549
6652800,20.80332308,2.953366421218365
6739200,19.97556074,3.0091790754418333
6825600,21.00838915,3.2555575728440087
6912000,24.31989834,3.34695794228863
6998400,20.80685331,0.0
7084800,28.6536715,3.4859594594879484
7171200,25.35754608,3.3081196162886
7257600,22.74577968,3.1177999489729507
7344000,21.50626889,3.182534331122272
7430400,22.62936799,3.302033534542952
7516800,25.68599011,3.513165100989833
7603200,21.63746542,0.0
7689600,20.10484408,0.0
7776000,32.02144129,3.746184094366956
7862400,24.02717043,0.0
7948800,21.3800995,0.0
8035200,33.72016675,3.86150053719547
8121600,31.28603022,3.7686704750523714
8208000,24.85249217,0.0
8294400,22.20466976,0.0
8380800,20.79716886,0.0
8467200,19.94935416,0.0
8553600,36.10889755,4.045333212741533
8640000,31.09082994,3.691385426447004
8726400,27.2376359,3.2533181786685583
8812800,24.9869479,3.0917945046592337
8899200,23.43822571,3.111246100041805
8985600,22.8701862,3.3675721817812523
9072000,25.95268935,3.441396615928841
9158400,22.19831126,0.0
9244800,20.72886207,0.0
9331200,19.92788392,0.0
9417600,19.41637394,0.0
9504000,19.05833566,0.0
9590400,18.78974284,0.0
9676800,18.5768435,0.0
9763200,18.40078407,0.0
9849600,18.25052724,0.0
9936000,18.1192988,0.0
10022400,18.00273338,0.0
10108800,17.89787848,0.0
10195200,17.80264411,0.0
10281600,17.71548907,0.0
10368000,17.63523638,0.0
10454400,17.56096052,0.0
10540800,17.49191627,0.0
10627200,37.29670296,4.2329738297353465
10713600,32.32994506,3.751042855466297
10800000,28.91453171,3.594394943033428
10886400,27.99382557,3.6706194868508737
10972800,30.13346801,3.7602324827437528
11059200,24.21087244,0.0
11145600,21.81756146,0.0
11232000,20.54438086,0.0
11318400,19.77194307,0.0
11404800,19.26322787,0.0
11491200,18.90448403,0.0
11577600,18.63590259,0.0
11664000,18.42448421,0.0
11750400,18.25127671,0.0
11836800,18.10493985,0.0
11923200,17.97838894,0.0
12009600,17.86699797,0.0
12096000,17.7676126,0.0
12182400,17.67799271,0.0
12268800,17.59648823,0.0
12355200,17.52184453,0.0
12441600,17.45308176,0.0
12528000,17.3894174,0.0
12614400,17.33021499,0.0
12700800,17.2749489,0.0
12787200,17.22317958,0.0
12873600,17.17453547,0.0
12960000,17.12869968,0.0
13046400,17.08539978,0.0
13132800,17.04439992,0.0
13219200,17.00549468,0.0
13305600,16.96850409,0.0
13392000,16.93326971,0.0
13478400,16.89965137,0.0
13564800,16.86752453,0.0
13651200,16.83677806,0.0
13737600,16.80731244,0.0
13824000,16.77903822,0.0
13910400,16.75187472,0.0
13996800,16.72574896,0.0
14083200,16.70059469,0.0
14169600,16.67635163,0.0
14256000,16.65296475,0.0
14342400,16.63038371,0.0
14428800,16.60856235,0.0
14515200,16.58745822,0.0
14601600,16.56703221,0.0
14688000,16.54724822,0.0
14774400,16.52807284,0.0
14860800,16.5094751,0.0
14947200,16.49142625,0.0
15033600,16.47389956,0.0
15120000,16.4568701,0.0
15206400,16.44031461,0.0
15292800,16.42421137,0.0
15379200,16.40854004,0.0
15465600,16.39328155,0.0
15552000,16.37841803,0.0
15638400,16.36393266,0.0
15724800,16.34980965,0.0
15811200,16.33603411,0.0
15897600,16.322592,0.0
15984000,16.30947008,0.0
16070400,16.29665585,0.0
16156800,16.28413748,0.0
16243200,16.27190377,0.0
16329600,16.25994412,0.0
16416000,16.24824849,0.0
16502400,16.23680734,0.0
16588800,16.2256116,0.0
16675200,16.21465268,0.0
16761600,16.20392239,0.0
16848000,16.19341295,0.0
16934400,16.18311694,0.0
17020800,16.17302729,0.0
17107200,16.16313726,0.0
17193600,16.15344043,0.0
17280000,16.14393065,0.0
17366400,16.13460206,0.0
17452800,16.12544906,0.0
17539200,16.11646628,0.0
17625600,16.10764859,0.0
17712000,16.09899109,0.0
17798400,16.09048905,0.0
17884800,16.08213798,0.0
17971200,16.07393354,0.0
18057600,16.06587159,0.0
18144000,16.05794814,0.0
18230400,16.05015936,0.0
18316800,16.04250158,0.0
18403200,16.03497126,0.0
18489600,16.027565,0.0
18576000,16.02027954,0.0
18662400,16.01311172,0.0
18748800,16.00605852,0.0
18835200,15.999117,0.0
18921600,15.99228437,0.0
19008000,15.98555789,0.0
19094400,15.97893496,0.0
19180800,15.97241305,0.0
19267200,15.96598972,0.0
19353600,15.95966262,0.0
19440000,15.95342947,0.0
19526400,15.94728806,0.0
19612800,15.94123629,0.0
19699200,15.93527208,0.0
19785600,15.92939345,0.0
19872000,15.92359849,0.0
19958400,15.91788531,0.0
20044800,15.91225213,0.0
20131200,15.90669718,0.0
20217600,15.90121879,0.0
20304000,15.8958153,0.0
20390400,15.89048512,0.0
20476800,15.88522671,0.0
20563200,15.88003857,0.0
20649600,15.87491925,0.0
20736000,15.86986734,0.0
20822400,15.86488145,0.0
20908800,15.85996027,0.0
20995200,15.8551025,0.0
21081600,15.85030688,0.0
21168000,15.84557218,0.0
21254400,15.84089723,0.0
21340800,15.83628086,0.0
21427200,15.83172194,0.0
21513600,15.82721939,0.0
21600000,15.82277214,0.0
21686400,15.81837915,0.0
21772800,15.8140394,0.0
21859200,15.80975193,0.0
21945600,15.80551576,0.0
22032000,15.80132996,0.0
22118400,15.79719362,0.0
22204800,15.79310586,0.0
22291200,15.78906581,0.0
22377600,15.78507261,0.0
22464000,15.78112546,0.0
22550400,15.77722355,0.0
22636800,15.77336608,0.0
22723200,15.7695523,0.0
22809600,15.76578146,0.0
22896000,15.76205283,0.0
22982400,15.7583657,0.0
23068800,15.75471936,0.0
23155200,15.75111314,0.0
23241600,15.74754637,0.0
23328000,15.74401841,0.0
23414400,15.74052861,0.0
23500800,15.73707637,0.0
23587200,15.73366106,0.0
23673600,15.7302821,0.0
23760000,15.72693891,0.0
23846400,15.72363091,0.0
23932800,15.72035755,0.0
24019200,44.67891712,5.219875190692466
24105600,42.40045856,4.982436940347197
24192000,28.87538994,0.0
24278400,23.71855049,0.0
24364800,21.15030939,0.0
24451200,19.70378154,0.0
24537600,18.82802528,0.0
24624000,18.26397292,0.0
24710400,17.87849574,0.0
24796800,17.60010637,0.0
24883200,17.38905694,0.0
24969600,17.22245065,0.0
25056000,17.08658724,0.0
25142400,16.97293259,0.0
25228800,16.87594664,0.0
25315200,16.79188355,0.0
25401600,16.71811122,0.0
25488000,16.65271421,0.0
25574400,16.59425501,0.0
25660800,16.54162603,0.0
25747200,16.49395476,0.0
25833600,16.45054113,0.0
25920000,16.41081476,0.0
26006400,42.33558386,4.807538850367785
26092800,37.03522027,3.896616589873758
26179200,33.49660377,3.5539350541723547
26265600,31.02369876,3.563414358100463
26352000,33.58010188,4.34523697086624
26438400,25.76218682,0.0
26524800,22.58805398,0.0
26611200,20.90628988,0.0
26697600,40.45445447,4.599968848670353
26784000,37.74434241,4.377387779919074
26870400,33.80856323,3.9488160295776256
26956800,30.4940849,3.5498711836624413
27043200,28.65701275,3.244291699536036
27129600,27.41512804,3.172238967425507
27216000,26.33915131,3.272196985441656
27302400,25.59777962,3.1858882731913365
27388800,24.98728025,3.1663528729218067
27475200,24.46288493,3.153879056485199
27561600,24.02284748,3.125879454724505
27648000,23.73475661,3.0284522128053304
27734400,23.27820971,3.141791374628297
27820800,22.94516968,3.0907374180181
27907200,22.81100757,2.94970624936626
27993600,22.51870726,3.0198668590994155
28080000,22.17312402,3.073382724880592
28166400,21.84172373,3.0951727570316447
28252800,21.64669874,3.0190410520607127
28339200,21.45881336,3.001579422829124
28425600,21.08217646,3.1396116787992825
28512000,22.93567378,3.3308963962340625
28598400,25.99670854,3.426192808152674
28684800,25.02421556,3.3091704440185428
28771200,23.33282792,2.923816589786856
28857600,22.51292956,2.8038625649076487
28944000,21.87225912,2.863542929065196
29030400,21.34971015,2.914124760170204
29116800,21.08177124,2.8360077308596368
29203200,21.07692578,2.690943620231784
29289600,20.74604881,2.8535922427522937
29376000,20.10430617,3.142450587543156
29462400,21.31020211,3.272895309408623
29548800,21.87806457,3.1874686278138658
29635200,20.95479375,2.87794343657804
29721600,20.46660279,2.837601852397408
29808000,20.10918474,2.8503465270652075
29894400,19.90920151,2.806143700703736
29980800,19.52579025,2.948904207813545
30067200,19.11058345,3.051361571145643
30153600,19.63026992,3.108423307412848
30240000,22.77174201,3.220827554381493
30326400,24.15733093,3.257653070556883
30412800,23.6055371,3.254435648203156
30499200,23.27972993,3.274128417718257
30585600,22.17781489,3.206362370444168
30672000,20.74407123,3.046146300632468
30758400,20.34095881,3.1213412549194595
30844800,20.03949645,3.086101661352158
30931200,19.61697788,3.042016329670152
31017600,19.18034051,2.881131006999812
31104000,18.95560224,2.8225637454225123
31190400,19.07755995,2.630054298837779
31276800,19.147612,2.5992491304516387
31363200,18.84644741,2.779139193070688
31449600,18.64494426,2.77355522044347
