Time,Temperature,cop
3600,36.118342,0.0
7200,32.262189,0.0
10800,29.081561,0.0
14400,26.564992,0.0
18000,24.592353,0.0
21600,23.046828,0.0
25200,21.83305,0.0
28800,20.876298,0.0
32400,20.118666,0.0
36000,19.515408,0.0
39600,19.03197,0.0
43200,18.641669,0.0
46800,18.323896,0.0
50400,18.062729,0.0
54000,17.845858,0.0
57600,17.663764,0.0
61200,17.509079,0.0
64800,17.376097,0.0
68400,17.260392,0.0
72000,17.15853,0.0
75600,17.067839,0.0
79200,16.986239,0.0
82800,16.912103,0.0
86400,16.844161,0.0
100800,16.631797,0.0
115200,16.458607,0.0
129600,16.31358,0.0
144000,16.190187,0.0
158400,16.084177,0.0
172800,15.992531,0.0
187200,15.912955,0.0
201600,15.843624,0.0
216000,15.783041,0.0
230400,15.72996,0.0
244800,15.683329,0.0
259200,15.642258,0.0
273600,15.605987,0.0
288000,15.573871,0.0
302400,15.545356,0.0
316800,15.519967,0.0
331200,15.497299,0.0
345600,15.477002,0.0
360000,15.458775,0.0
374400,15.44236,0.0
388800,15.427534,0.0
403200,15.414104,0.0
417600,15.401902,0.0
432000,15.390785,0.0
446400,15.380626,0.0
460800,15.371317,0.0
475200,15.362762,0.0
489600,15.354879,0.0
504000,15.347595,0.0
518400,15.340846,0.0
604800,15.312071,0.0
691200,15.290703,0.0
777600,15.274219,0.0
864000,15.261087,0.0
950400,15.250348,0.0
1036800,15.241379,0.0
1123200,15.233759,0.0
1209600,15.227195,0.0
1296000,15.221478,0.0
1382400,15.21645,0.0
1468800,15.211994,0.0
1555200,15.208017,0.0
1641600,15.204446,0.0
1728000,15.201223,0.0
1814400,15.198299,0.0
1900800,15.195637,0.0
1987200,15.193202,0.0
2073600,15.190967,0.0
2160000,15.188908,0.0
2246400,15.187007,0.0
2332800,15.185246,0.0
2419200,15.18361,0.0
2505600,15.182086,0.0
2592000,15.180664,0.0
2678400,15.179334,0.0
2764800,15.178087,0.0
2851200,15.176916,0.0
2937600,15.175814,0.0
3024000,15.174775,0.0
3110400,15.173795,0.0
3196800,15.172868,0.0
3283200,15.17199,0.0
3369600,15.171158,0.0
3456000,15.170368,0.0
3542400,15.169617,0.0
3628800,15.168902,0.0
3715200,15.168222,0.0
3801600,15.167572,0.0
3888000,15.166952,0.0
3974400,15.166359,0.0
4060800,15.165793,0.0
4147200,15.16525,0.0
4233600,15.16473,0.0
4320000,15.164231,0.0
4406400,15.163752,0.0
4492800,15.163292,0.0
4579200,15.16285,0.0
4665600,15.162425,0.0
4752000,15.162016,0.0
4838400,15.161621,0.0
4924800,15.161241,0.0
5011200,15.160875,0.0
5097600,15.160521,0.0
5184000,15.16018,0.0
5270400,15.159849,0.0
5356800,15.15953,0.0
5443200,15.159222,0.0
5529600,15.158923,0.0
5616000,15.158634,0.0
5702400,15.158354,0.0
5788800,15.158082,0.0
5875200,15.157819,0.0
5961600,15.157563,0.0
6048000,15.157315,0.0
6134400,15.157075,0.0
6220800,15.156841,0.0
6307200,15.156614,0.0
6393600,15.156393,0.0
6480000,15.156178,0.0
6566400,15.155969,0.0
6652800,15.155765,0.0
6739200,42.058212,4.558231685666456
6825600,37.461898,4.464627535263159
6912000,34.030285,4.230208285436565
6998400,31.766144,3.986846123105457
7084800,30.306964,3.715067053261712
7171200,29.350445,3.482875747634969
7257600,28.545935,3.441807925673694
7344000,27.747056,3.516249415416661
7430400,26.972975,3.5967458324521178
7516800,26.241145,3.667955720723784
7603200,25.646406,3.630173045899706
7689600,25.203691,3.529195283728116
7776000,24.894675,3.402788102872377
7862400,24.407398,3.5457009975551923
7948800,24.02026,3.498932878434146
8035200,23.861194,3.2974913496986984
8121600,23.632653,3.297042161886276
8208000,23.182437,3.482404763564096
8294400,22.745337,3.5441255620300884
8380800,22.413883,3.5039586766027853
8467200,22.279626,3.336470977604352
8553600,22.240835,3.2053082899419816
8640000,22.259724,3.090860930245699
8726400,22.300749,3.000286276966229
8812800,22.298263,2.961636731161457
8899200,22.113171,3.0454468735744045
8985600,21.671607,3.265208292545613
9072000,21.270989,3.3328107489496683
9158400,20.87171,3.4166979611507764
9244800,20.718048,3.4730787338243307
9331200,22.185743,3.582053099815799
9417600,23.413366,3.616506006663781
9504000,24.249196,3.6534059378545742
9590400,24.963216,3.730118370165062
9676800,25.534038,3.814533228673222
9763200,26.660758,3.877687257303908
9849600,27.249025,3.8441407211215712
9936000,25.663236,3.807619573275024
10022400,23.280953,3.477547830452552
10108800,22.053326,3.29610151211879
10195200,21.277557,3.2616277934914173
10281600,20.606545,3.3690085396454257
10368000,20.146317,3.34481152386246
10454400,19.828816,3.303904780931941
10540800,19.687246,3.1890201995339478
10627200,19.778988,2.9873677774847502
10713600,19.766733,2.982748306912418
10800000,19.625591,3.03974191975434
10886400,19.395683,3.113815850263283
10972800,19.098532,3.204674299746064
11059200,18.751321,3.3092811877126818
11145600,18.518796,3.284682578769648
11232000,18.42681,3.194134252322897
11318400,18.383129,3.1373255315909088
11404800,18.286112,3.1527749116864423
11491200,18.2042,3.13445190573318
11577600,18.132473,3.1163009894684928
11664000,18.019597,3.13790993376536
11750400,17.774213,3.2540883707856776
11836800,18.117391,3.368907983706868
11923200,20.074004,3.454559796026534
12009600,21.256655,3.549800082633347
12096000,21.35144,3.58168233132892
12182400,20.647782,3.5059084429607146
12268800,20.575155,3.457694937994909
12355200,21.658025,3.5225339443248327
12441600,21.914341,3.5808287238401872
12528000,22.693345,3.571126899429312
12614400,23.400406,3.699318211619311
12700800,22.661383,3.633355726835677
12787200,21.254908,3.491308078392247
12873600,21.287933,3.5381271745201914
12960000,23.050265,3.656937082358225
13046400,25.265116,3.8270971507643066
13132800,21.153799,0.0
13219200,19.580922,0.0
13305600,18.76107,0.0
13392000,18.265222,0.0
13478400,17.93743,0.0
13564800,34.846836,4.704654668488358
13651200,32.728965,4.512228082637888
13737600,31.38042,4.240482431954288
13824000,31.048669,4.423583161591516
13910400,30.875987,4.408122491652343
13996800,30.559425,4.345484253394967
14083200,30.515023,4.303600391565464
14169600,31.14604,4.47760053499833
14256000,25.048507,0.0
14342400,33.677423,4.836155838263399
14428800,25.735375,0.0
14515200,22.820959,0.0
14601600,21.317321,0.0
14688000,20.404565,0.0
14774400,19.797411,0.0
14860800,19.363961,0.0
14947200,19.035599,0.0
15033600,18.774534,0.0
15120000,18.559016,0.0
15206400,18.375967,0.0
15292800,18.217154,0.0
15379200,18.077148,0.0
15465600,17.952205,0.0
15552000,17.839631,0.0
15638400,17.737419,0.0
15724800,17.644023,0.0
15811200,40.423774,5.710748327400072
15897600,38.345452,5.201567746193785
15984000,37.082038,5.281970454123737
16070400,36.480218,5.243998044124394
16156800,35.25922,4.883492026091146
16243200,33.446789,4.5467340007230375
16329600,31.65488,4.387404810090703
16416000,30.833395,4.25516612539978
16502400,30.868942,4.329203859333737
16588800,31.223718,4.364931453592394
16675200,31.407995,4.3976201826419015
16761600,31.093612,4.336638139740761
16848000,30.470741,4.279074377866737
16934400,30.101802,4.20457593362767
17020800,30.415293,4.204862969266362
17107200,31.563854,4.498745376672561
17193600,25.795452,0.0
17280000,23.373908,0.0
17366400,22.033181,0.0
17452800,21.183977,0.0
17539200,20.598499,0.0
17625600,20.166514,0.0
17712000,19.829517,0.0
17798400,19.554819,0.0
17884800,19.32333,0.0
17971200,19.123378,0.0
18057600,18.947484,0.0
18144000,18.790621,0.0
18230400,18.649256,0.0
18316800,18.520802,0.0
18403200,18.403297,0.0
18489600,18.295209,0.0
18576000,18.195313,0.0
18662400,18.102609,0.0
18748800,18.016267,0.0
18835200,17.935591,0.0
18921600,17.859989,0.0
19008000,17.788954,0.0
19094400,17.722049,0.0
19180800,17.658893,0.0
19267200,17.599155,0.0
19353600,41.646493,5.902760080491582
19440000,39.283924,5.271008887248066
19526400,37.413571,5.119742573028832
19612800,36.590043,5.112255483905331
19699200,36.47012,5.237092478773424
19785600,28.002981,0.0
19872000,24.433098,0.0
19958400,39.16896,5.555239842855612
20044800,37.496558,5.088637533024807
20131200,36.632665,5.027975460093432
20217600,28.462305,0.0
20304000,24.987618,0.0
20390400,23.097103,0.0
20476800,21.936428,0.0
20563200,21.164709,0.0
20649600,20.615828,0.0
20736000,20.201951,0.0
20822400,19.874426,0.0
20908800,19.605182,0.0
20995200,19.377323,0.0
21081600,41.975495,6.019219921670422
21168000,39.540988,5.259691151347501
21254400,37.85593,5.194977871291592
21340800,35.841418,4.910086837930876
21427200,33.65179,4.522744058667366
21513600,31.479115,4.40152448796114
21600000,29.339032,4.178590183468726
21686400,27.49311,4.0234450782903926
21772800,26.481326,3.900458428993277
21859200,26.538822,3.9047054859392727
21945600,28.261057,4.095168745955625
22032000,29.688238,4.228301157961773
22118400,29.776342,4.086469871754891
22204800,30.116774,4.086813443311343
22291200,29.554385,4.187143555137145
22377600,28.037185,4.071608694462872
22464000,25.530929,3.7333503041512497
22550400,23.610001,3.5152666090452853
22636800,22.410829,3.4414828814444216
22723200,21.978524,3.544299900388005
22809600,23.738483,3.67031293733205
22896000,24.997731,3.8189204194607824
22982400,25.755016,3.831249566330514
23068800,25.962401,3.9049205448463455
23155200,26.24089,3.910595137832072
23241600,26.430276,3.9650002008635967
23328000,26.283645,3.924294251752107
23414400,26.359988,3.915875388197729
23500800,25.97974,3.92573651967777
23587200,25.464188,3.839826377920629
23673600,23.067918,3.549832917471896
23760000,21.532381,3.316493204493722
23846400,20.579896,3.264436637498653
23932800,19.915022,3.2489633516374874
24019200,19.565092,3.116410558152028
24105600,19.232625,3.129280044514636
24192000,18.734225,3.3051677987942103
24278400,18.364199,3.294161480944093
24364800,18.130151,3.228349910716275
24451200,17.809831,3.3129654828664448
24537600,19.269519,3.4721910300507286
24624000,21.933077,3.540409769857407
24710400,23.950974,3.682949331429053
24796800,24.680954,3.697931579554617
24883200,23.735565,3.66175618401238
24969600,22.845222,3.675390529557317
25056000,21.977443,3.624655838065341
25142400,20.737809,3.480892276357784
25228800,20.05732,3.4825337916800434
25315200,19.947935,3.500645391811711
25401600,19.092174,3.369346118756892
25488000,18.243405,3.280689396283196
25574400,18.284703,3.3758041088084294
25660800,18.626802,3.422232653551124
25747200,19.360852,3.428272276479492
25833600,18.352494,3.2855152851789367
25920000,17.877597,2.976024037309572
26006400,17.646143,2.9034786384599216
26092800,17.614432,2.7950922286753035
26179200,17.628317,2.741223344614038
26265600,17.435986,2.8421605028512205
26352000,16.772157,3.2335956385194087
26438400,16.429754,3.161742354071825
26524800,16.254039,3.095223357202307
26611200,16.215622,3.002548435777603
26697600,16.226638,2.9408249972057448
26784000,16.220906,2.918238091233148
26870400,16.28686,2.8443027239481053
26956800,16.343767,2.8088718596639137
27043200,16.547101,2.6839431338643704
27129600,16.639584,2.6835205067007286
27216000,16.494308,2.79570007211894
27302400,16.448571,2.7597755181467223
27388800,16.386985,2.766783713562065
27475200,16.314883,2.7751764113490487
27561600,16.259691,2.7687969350284427
27648000,16.307401,2.704529056842114
27734400,16.148906,2.807054954651884
27820800,16.084263,2.7767468848732184
27907200,16.194543,2.67081788313015
27993600,16.123776,2.738367428838874
28080000,15.984038,2.7900756575618177
28166400,15.841755,2.816940966455604
28252800,15.825018,2.7594877413499352
28339200,15.802945,2.7516095758948405
28425600,15.577143,2.877162605462808
28512000,15.31944,2.951848579310116
28598400,15.089891,2.990691122321408
28684800,15.223817,2.784621193383144
28771200,15.566804,2.6054848714739007
28857600,15.848378,2.548421412345681
28944000,15.872093,2.6211169124155487
29030400,15.778765,2.681628522056049
29116800,15.813955,2.6249271278311936
29203200,16.03665,2.507645693950508
29289600,15.886681,2.6560388524847105
29376000,15.39256,2.9152544019319406
29462400,15.049144,2.9467026924029245
29548800,14.990811,2.8295073866490394
29635200,15.223551,2.644321728173106
29721600,15.353874,2.6325132160474
29808000,15.372277,2.658202798474404
29894400,15.42444,2.628288710045055
29980800,15.222424,2.76124275312537
30067200,14.945329,2.859249352061528
30153600,14.777904,2.8515435851304614
30240000,14.503898,2.958213749701317
30326400,14.437833,2.8752092469532595
30412800,14.485947,2.7980417992760165
30499200,14.443258,2.82812836512013
30585600,15.246768,0.0
30672000,15.580506,0.0
30758400,15.758038,0.0
30844800,15.863915,0.0
30931200,15.931556,0.0
31017600,15.977227,0.0
31104000,16.009548,0.0
31190400,16.033308,0.0
31276800,16.051285,0.0
31363200,16.065157,0.0
31449600,16.075988,0.0
